Time (s),Gripper X,Gripper Y,Gripper Z,Gripper Orientation X,Gripper Orientation Y,Gripper Orientation Z,Gripper Orientation W,Desired Position X,Desired Position Y,Desired Position Z,Desired Orientation W,Desired Orientation X,Desired Orientation Y,Desired Orientation Z
0.0812380313873291,-0.03973577392252976,-0.24503619224076853,0.3653313725571538,0.05005000051999763,0.038460325789960136,0.7388162809980784,0.6709443372741489,0.0,0.0,0.0,0.0,0.0,0.0,0.0
0.18204998970031738,-0.03973577359067573,-0.24503619190195866,0.36533137316365777,0.05004999919682875,0.038460326301892146,0.7388162818964022,0.6709443363543098,0.0,0.0,0.0,0.0,0.0,0.0,0.0
0.28075504302978516,-0.03973577269792293,-0.24503619359889273,0.3653313709793115,0.05005000357388665,0.0384603242048767,0.7388162823737026,0.6709443356224204,0.0,0.0,0.0,0.0,0.0,0.0,0.0
0.3822300434112549,-0.039826002340573256,-0.24507832673221036,0.36539707207129846,0.050029877583671195,0.03835646760651447,0.7388032395400466,0.6709661436964207,0.0,0.0,0.0,0.0,0.0,0.0,0.0
0.4835031032562256,-0.04058889613471382,-0.2454316789588651,0.36595184399902386,0.049859030925936514,0.037482218422434446,0.738693241645671,0.6711493537836938,0.0,0.0,0.0,0.0,0.0,0.0,0.0
0.5833330154418945,-0.04274109075355016,-0.24640069829069464,0.3675101569646445,0.04937017304138998,0.03505290504597118,0.7383852642247347,0.6716554782308188,0.0,0.0,0.0,0.0,0.0,0.0,0.0
0.6833219528198242,-0.04666620203204529,-0.24806551628918513,0.3703282116150319,0.04845409509312046,0.03075621982745608,0.7378322231220942,0.67253986211476,0.0,0.0,0.0,0.0,0.0,0.0,0.0
0.783376932144165,-0.053054020469831806,-0.2505066963286406,0.37485602544328733,0.04690270689592514,0.024102409318420153,0.7369548204139645,0.6738818907045236,0.0,0.0,0.0,0.0,0.0,0.0,0.0
0.8836100101470947,-0.06233153867316225,-0.2535031254676428,0.3813264124660357,0.044536151297120734,0.01509664887310011,0.7357267152248499,0.6756440060600664,0.0,0.0,0.0,0.0,0.0,0.0,0.0
0.9834001064300537,-0.0752394070012421,-0.2566845920557863,0.3901740096158147,0.04106389391489365,0.003664018866946503,0.734100276679472,0.6777884001378393,0.0,0.0,0.0,0.0,0.0,0.0,0.0
1.083981990814209,-0.09127535399778787,-0.2591824750003015,0.4010060074899569,0.03652519955540322,-0.009078308582814732,0.7321978333317772,0.6800513414257515,0.0,0.0,0.0,0.0,0.0,0.0,0.0
1.1833810806274414,-0.11193948731598018,-0.26022349320826943,0.4148537323791394,0.030400234742749395,-0.023580303832822492,0.7299150434922045,0.6824542653412834,0.0,0.0,0.0,0.0,0.0,0.0,0.0
1.28416109085083,-0.13550665519895422,-0.2585954159414764,0.43069954272349775,0.023127546223270713,-0.03801150184121657,0.7275135481001256,0.6846490193261304,0.0,0.0,0.0,0.0,0.0,0.0,0.0
1.3838698863983154,-0.1633734217694908,-0.25287248900622905,0.4498119238964571,0.014217052314894231,-0.05274950547308414,0.7249162539501767,0.6866671608972309,0.0,0.0,0.0,0.0,0.0,0.0,0.0
1.4848299026489258,-0.19299626462664604,-0.24207980374843308,0.47100375016722307,0.004423056213140982,-0.06614757034593435,0.7224096892820516,0.6882798677445642,0.0,0.0,0.0,0.0,0.0,0.0,0.0
1.5847361087799072,-0.2228256933102908,-0.2256636884038309,0.49387418801089567,-0.005780881075765965,-0.07762583247825659,0.720124334865059,0.689464831504263,0.0,0.0,0.0,0.0,0.0,0.0,0.0
1.6863300800323486,-0.25287096524294317,-0.20205519388495102,0.5194921047052254,-0.016486853990154253,-0.0873433832044217,0.7180460540075393,0.6902964445657495,0.0,0.0,0.0,0.0,0.0,0.0,0.0
1.7863130569458008,-0.2793855106939144,-0.17274244968872665,0.5458981191144595,-0.026472340188030317,-0.09440654195323808,0.716388145333396,0.6907782895163814,0.0,0.0,0.0,0.0,0.0,0.0,0.0
1.8845810890197754,-0.3008277522600961,-0.13905149936350647,0.5724458144908161,-0.03522724861058002,-0.098950827761785,0.7151611425730262,0.6910226586691853,0.0,0.0,0.0,0.0,0.0,0.0,0.0
1.9851810932159424,-0.3167752691338999,-0.10117593432868313,0.599590308590523,-0.04267007578856263,-0.10136825809814103,0.7143007413416977,0.691142671089731,0.0,0.0,0.0,0.0,0.0,0.0,0.0
2.08514404296875,-0.32607775381691223,-0.061731198632928655,0.6261445737543416,-0.04833146583930827,-0.10191699401045855,0.7137821119004569,0.6912250664382907,0.0,0.0,0.0,0.0,0.0,0.0,0.0
2.185807943344116,-0.3288285477797547,-0.02278270893353514,0.6514880599108966,-0.052130256117115394,-0.10106627397586827,0.71352658839846,0.6913377266649445,0.0,0.0,0.0,0.0,0.0,0.0,0.0
2.286526918411255,-0.3257097947045454,0.014503432029084948,0.6755164104763783,-0.054200857784611256,-0.09926295671222891,0.7134480917767072,0.6915207536873594,0.0,0.0,0.0,0.0,0.0,0.0,0.0
2.385166883468628,-0.3183693835428521,0.04659894834010911,0.6964185525502264,-0.0547343463244764,-0.09707543807322219,0.7134699680772573,0.6917666624716473,0.0,0.0,0.0,0.0,0.0,0.0,0.0
2.486269950866699,-0.30784855141422685,0.07520641249130726,0.7155445459855341,-0.05415022805451987,-0.09469319580970346,0.7135331254794517,0.6920776187050941,0.0,0.0,0.0,0.0,0.0,0.0,0.0
2.585848093032837,-0.29632154740329325,0.09814216886985713,0.7314644415960043,-0.052858879623788636,-0.09251114541979276,0.7135970746951592,0.6924065581755757,0.0,0.0,0.0,0.0,0.0,0.0,0.0
2.686985969543457,-0.2852597135048881,0.11579160431811474,0.7442456280734076,-0.05127969650860127,-0.09067295089413586,0.7136441872443222,0.6927198443198564,0.0,0.0,0.0,0.0,0.0,0.0,0.0
2.7902159690856934,-0.2751302976221783,0.12948693325368754,0.7546005789291171,-0.0496389018753251,-0.08915127443770936,0.7136731480358841,0.6930069750437546,0.0,0.0,0.0,0.0,0.0,0.0,0.0
2.891934871673584,-0.2672937877930272,0.1388572876916719,0.7619689748077862,-0.04827134031278145,-0.08806127354822382,0.7136858803331472,0.6932297988535788,0.0,0.0,0.0,0.0,0.0,0.0,0.0
2.9904379844665527,-0.26183430736771984,0.14485962271801564,0.7668359871875905,-0.04727584025662973,-0.08734166775659921,0.7136901892837474,0.6933849880994354,0.0,0.0,0.0,0.0,0.0,0.0,0.0
3.089500904083252,-0.25870010888880546,0.14813088578252412,0.7695435754007558,-0.04668995006752083,-0.08694219405745918,0.7136900431143309,0.6934750361870512,0.0,0.0,0.0,0.0,0.0,0.0,0.0
3.1911189556121826,-0.257316704070014,0.14953676918673217,0.7707202078789425,-0.0464281960041075,-0.08676893777810651,0.7136897531459047,0.6935146071332606,0.0,0.0,0.0,0.0,0.0,0.0,0.0
3.291619062423706,-0.25707310351550716,0.14978197637504145,0.7709262602980965,-0.0463819070643745,-0.0867386173196773,0.7136896686805363,0.6935215842215788,0.0,0.0,0.0,0.0,0.0,0.0,0.0
3.389854907989502,-0.2570728563204438,0.1497822256725429,0.7709264708831352,-0.04638186020186136,-0.08673858694498846,0.713689673627418,0.6935215860639027,0.0,0.0,0.0,0.0,0.0,0.0,0.0
3.5249600410461426,-0.25707274291773685,0.14978221182807713,0.7709265188240354,-0.0463817909501863,-0.08673853393219126,0.7136896757212562,0.693521595170933,0.0,0.0,0.0,0.0,0.0,0.0,0.0
3.61694598197937,-0.25707286141379604,0.14978222501301175,0.7709264686701098,-0.04638186280352939,-0.08673858961036983,0.7136896735348593,0.6935215856517981,0.0,0.0,0.0,0.0,0.0,0.0,0.0
3.717226982116699,-0.2570728565459473,0.14978222570515895,0.7709264707785324,-0.04638186034953252,-0.08673858706942944,0.7136896735713997,0.6935215860961103,0.0,0.0,0.0,0.0,0.0,0.0,0.0
3.820978879928589,-0.25707285741321273,0.14978222673650168,0.7709264701677997,-0.04638186138465565,-0.08673858779712135,0.7136896715776583,0.6935215879875911,0.0,0.0,0.0,0.0,0.0,0.0,0.0
3.9204249382019043,-0.25707286922996536,0.1497822307431055,0.7709264642684762,-0.046381870040192195,-0.0867385944641917,0.7136896665617215,0.6935215917366742,0.0,0.0,0.0,0.0,0.0,0.0,0.0
4.026469945907593,-0.25707281829982415,0.14978223609312488,0.7709264822606618,-0.0463818445593354,-0.0867385744145086,0.7136896429879077,0.6935216202077662,0.0,0.0,0.0,0.0,0.0,0.0,0.0
4.124330997467041,-0.2570728578782173,0.14978222631837,0.7709264700695502,-0.04638186146568236,-0.08673858790759814,0.7136896730686809,0.6935215864339722,0.0,0.0,0.0,0.0,0.0,0.0,0.0
4.2292609214782715,-0.2570727458865176,0.14978221009322173,0.7709265181725827,-0.04638179174968986,-0.08673853466409327,0.7136896802283429,0.6935215903877686,0.0,0.0,0.0,0.0,0.0,0.0,0.0
4.3282880783081055,-0.2570728563699666,0.14978222613704378,0.7709264707863863,-0.04638186044326417,-0.0867385870321562,0.7136896728737957,0.6935215868123942,0.0,0.0,0.0,0.0,0.0,0.0,0.0
4.427517890930176,-0.25707286269117274,0.14978222662937904,0.7709264679353324,-0.046381864302314904,-0.08673859034233462,0.7136896725087363,0.693521586515978,0.0,0.0,0.0,0.0,0.0,0.0,0.0
4.529664039611816,-0.25707285677510094,0.14978222573402514,0.7709264706911468,-0.04638186048948036,-0.08673858716649054,0.7136896735746818,0.6935215860712337,0.0,0.0,0.0,0.0,0.0,0.0,0.0
4.627562999725342,-0.2570728581946247,0.14978222644271463,0.770926469752715,-0.0463818616404377,-0.08673858829054608,0.7136896708079444,0.6935215887008697,0.0,0.0,0.0,0.0,0.0,0.0,0.0
4.728837013244629,-0.257072864918387,0.14978222436825694,0.7709264674556634,-0.046381864540311346,-0.08673859104063193,0.7136896763579667,0.6935215824515565,0.0,0.0,0.0,0.0,0.0,0.0,0.0
4.828833103179932,-0.2570728621472283,0.149782226389595,0.770926468197181,-0.046381863956320275,-0.0867385901420441,0.713689672403712,0.6935215866722464,0.0,0.0,0.0,0.0,0.0,0.0,0.0
4.928575038909912,-0.2570728572180071,0.14978222569540472,0.7709264703414663,-0.046381860703185576,-0.08673858760668876,0.7136896721521181,0.6935215874658187,0.0,0.0,0.0,0.0,0.0,0.0,0.0
5.030173063278198,-0.25707287727136724,0.14978223015539954,0.7709264609475276,-0.046381874358733255,-0.0867385983966487,0.7136896674463827,0.693521590045636,0.0,0.0,0.0,0.0,0.0,0.0,0.0
5.127486944198608,-0.2570728587337886,0.14978222623550125,0.7709264697075513,-0.046381861891313436,-0.08673858834078343,0.7136896726144818,0.6935215868187355,0.0,0.0,0.0,0.0,0.0,0.0,0.0
5.229165077209473,-0.2570728576399412,0.14978222639097186,0.7709264701234786,-0.046381861392472946,-0.08673858787285928,0.7136896727579634,0.6935215867629665,0.0,0.0,0.0,0.0,0.0,0.0,0.0
5.330877065658569,-0.25707285835791205,0.14978222625048873,0.7709264698683979,-0.04638186168221594,-0.08673858815163843,0.7136896725645036,0.6935215869078077,0.0,0.0,0.0,0.0,0.0,0.0,0.0
5.429476976394653,-0.25707286125103684,0.14978223049310577,0.7709263790415339,-0.04638186300165739,-0.08673858948569013,0.7136896708764241,0.6935215883898855,-0.2568869035278075,0.14798832243066248,0.769716119954384,0.6935215861248307,-0.04638186035518868,-0.08673858707187881,0.7136896735428255
5.529608964920044,-0.25707451673982723,0.14978329864558454,0.770898757795227,-0.04638260970387344,-0.08673933866042098,0.7136895924299805,0.6935215254791587,-0.2568869035278075,0.14798832243066248,0.769716119954384,0.6935215861248307,-0.04638186035518868,-0.08673858707187881,0.7136896735428255
5.630650043487549,-0.2570829759022063,0.1497883916784059,0.7707630816370894,-0.04638641734306195,-0.08674314134664718,0.7136897042391489,0.6935206801375335,-0.2568869035278075,0.14798832243066248,0.769716119954384,0.6935215861248307,-0.04638186035518868,-0.08673858707187881,0.7136896735428255
5.730709075927734,-0.2571006806502126,0.14980035305961098,0.7704577861158275,-0.04639452431831703,-0.08675128956338714,0.7136883047501047,0.693520558841112,-0.2568869035278075,0.14798832243066248,0.769716119954384,0.6935215861248307,-0.04638186035518868,-0.08673858707187881,0.7136896735428255
5.830780029296875,-0.2571304024643591,0.14982006678469365,0.7699472434256898,-0.04640831692368308,-0.08676511950078557,0.713686805437573,0.6935194488279598,-0.2568869035278075,0.14798832243066248,0.769716119954384,0.6935215861248307,-0.04638186035518868,-0.08673858707187881,0.7136896735428255
5.93154501914978,-0.25717172158661233,0.14984809753687123,0.7692194201125468,-0.04642797155515885,-0.08678482213285944,0.713684679728678,0.6935178555922086,-0.2568869035278075,0.14798832243066248,0.769716119954384,0.6935215861248307,-0.04638186035518868,-0.08673858707187881,0.7136896735428255
6.034363031387329,-0.25722310924494657,0.14988409047468723,0.7682819528719023,-0.04645327349184886,-0.08681017414489146,0.713681933931535,0.6935158139700703,-0.2568869035278075,0.14798832243066248,0.769716119954384,0.6935215861248307,-0.04638186035518868,-0.08673858707187881,0.7136896735428255
6.130413055419922,-0.2572807509725879,0.14992611532860986,0.7671829538878752,-0.04648292448961929,-0.08683986762138267,0.7136787213308083,0.6935134157621002,-0.2568869035278075,0.14798832243066248,0.769716119954384,0.6935215861248307,-0.04638186035518868,-0.08673858707187881,0.7136896735428255
6.231821060180664,-0.2573450641393896,0.1499754402120104,0.7658874177089521,-0.046517851924957644,-0.0868748229463444,0.7136748973285828,0.6935106311466076,-0.2568869035278075,0.14798832243066248,0.769716119954384,0.6935215861248307,-0.04638186035518868,-0.08673858707187881,0.7136896735428255
6.331748962402344,-0.2574088927055488,0.15002738398089327,0.7645144905445003,-0.046554775355226403,-0.08691176747734598,0.7136709369215989,0.6935076000730168,-0.2568869035278075,0.14798832243066248,0.769716119954384,0.6935215861248307,-0.04638186035518868,-0.08673858707187881,0.7136896735428255
6.432086944580078,-0.25747056406981517,0.15008089713559897,0.7630933354849262,-0.04659310803237055,-0.08695005964388898,0.7136667891763125,0.6935044941733116,-0.2568869035278075,0.14798832243066248,0.769716119954384,0.6935215861248307,-0.04638186035518868,-0.08673858707187881,0.7136896735428255
6.533192873001099,-0.2575271277701675,0.15013377741386627,0.7616805090488381,-0.04663111825475588,-0.08698801830782298,0.7136626767954217,0.6935014111235696,-0.2568869035278075,0.14798832243066248,0.769716119954384,0.6935215861248307,-0.04638186035518868,-0.08673858707187881,0.7136896735428255
6.633514881134033,-0.25757682556939593,0.15018396575513968,0.7603320006065297,-0.04666737877410947,-0.08702420247632879,0.7136587568416939,0.6934984662743536,-0.2568869035278075,0.14798832243066248,0.769716119954384,0.6935215861248307,-0.04638186035518868,-0.08673858707187881,0.7136896735428255
6.732301950454712,-0.2576184533360495,0.1502295577311081,0.7591000815320035,-0.04670041451623376,-0.0870571630220979,0.7136551822607423,0.6934957840412171,-0.2568869035278075,0.14798832243066248,0.769716119954384,0.6935215861248307,-0.04638186035518868,-0.08673858707187881,0.7136896735428255
6.83324408531189,-0.25765199716704673,0.15026901251942013,0.7580295112241527,-0.0467292352626344,-0.08708587034975616,0.7136520702577053,0.6934934407577955,-0.2568869035278075,0.14798832243066248,0.769716119954384,0.6935215861248307,-0.04638186035518868,-0.08673858707187881,0.7136896735428255
6.932554006576538,-0.2576773751416028,0.15030111474353505,0.7571545080728397,-0.04675272666804451,-0.0871092710331196,0.7136495373101376,0.6934915250716537,-0.2568869035278075,0.14798832243066248,0.769716119954384,0.6935215861248307,-0.04638186035518868,-0.08673858707187881,0.7136896735428255
7.032676935195923,-0.2576953399957034,0.15032524653024076,0.7564947626366136,-0.046770430347320875,-0.08712689842261317,0.7136476183259282,0.6934900916913754,-0.2568869035278075,0.14798832243066248,0.769716119954384,0.6935215861248307,-0.04638186035518868,-0.08673858707187881,0.7136896735428255
7.138741970062256,-0.25770684099249763,0.15034139622887718,0.7560521529177374,-0.04678230808664593,-0.08713872152553297,0.7136463349571406,0.693489125699331,-0.2568869035278075,0.14798832243066248,0.769716119954384,0.6935215861248307,-0.04638186035518868,-0.08673858707187881,0.7136896735428255
7.2386109828948975,-0.25771300512546885,0.15035031986897002,0.7558072430428668,-0.04678887556426891,-0.08714525796757253,0.7136456237962623,0.6934885931099662,-0.2568869035278075,0.14798832243066248,0.769716119954384,0.6935215861248307,-0.04638186035518868,-0.08673858707187881,0.7136896735428255
7.338675022125244,-0.2577152514495796,0.15035367141784747,0.7557158108810546,-0.04679132798241565,-0.08714769787247556,0.7136453078667709,0.6934884461481039,-0.2568869035278075,0.14798832243066248,0.769716119954384,0.6935215861248307,-0.04638186035518868,-0.08673858707187881,0.7136896735428255
7.439932107925415,-0.2577155268654495,0.15035402032488032,0.7557055187736654,-0.046791607615518434,-0.08714797647149289,0.7136453305296421,0.693488368948548,-0.25634346203004327,0.14275338123627232,0.7661842159568784,0.6935215861248307,-0.04638186035518868,-0.08673858707187881,0.7136896735428255
7.539140939712524,-0.2577107007973555,0.15035299476501518,0.755689252206919,-0.04679168569639953,-0.08714806826156088,0.7136453698058338,0.693488311727503,-0.25634346203004327,0.14275338123627232,0.7661842159568784,0.6935215861248307,-0.04638186035518868,-0.08673858707187881,0.7136896735428255
7.637995958328247,-0.2576843983927771,0.15034735304184726,0.75560090343391,-0.046792023554363175,-0.08714850287515868,0.7136456434232609,0.6934879527441745,-0.25634346203004327,0.14275338123627232,0.7661842159568784,0.6935215861248307,-0.04638186035518868,-0.08673858707187881,0.7136896735428255
7.738079071044922,-0.2576235528829341,0.15033448463548052,0.7553953400548687,-0.04679316047683241,-0.08714978376691367,0.7136460479592818,0.6934872987691038,-0.25634346203004327,0.14275338123627232,0.7661842159568784,0.6935215861248307,-0.04638186035518868,-0.08673858707187881,0.7136896735428255
7.838908910751343,-0.25752011358324467,0.15031251594403344,0.7550466642653265,-0.04679494404642628,-0.0871518458595413,0.713646909286801,0.6934860329093608,-0.25634346203004327,0.14275338123627232,0.7661842159568784,0.6935215861248307,-0.04638186035518868,-0.08673858707187881,0.7136896735428255
7.939841985702515,-0.25736759322212904,0.15028023478377264,0.7545336394931045,-0.046797554976086564,-0.08715486861575937,0.7136481127894857,0.693484238347805,-0.25634346203004327,0.14275338123627232,0.7661842159568784,0.6935215861248307,-0.04638186035518868,-0.08673858707187881,0.7136896735428255
8.040251970291138,-0.2571730882370762,0.1502391785579735,0.7538810510978868,-0.04680085435322837,-0.08715869740227512,0.7136496834455679,0.6934819181615245,-0.25634346203004327,0.14275338123627232,0.7661842159568784,0.6935215861248307,-0.04638186035518868,-0.08673858707187881,0.7136896735428255
8.139014959335327,-0.25693859849460066,0.15018987302784792,0.7530967647569731,-0.04680479859859144,-0.08716328346611792,0.7136515735895387,0.693479130440654,-0.25634346203004327,0.14275338123627232,0.7661842159568784,0.6935215861248307,-0.04638186035518868,-0.08673858707187881,0.7136896735428255
8.240794897079468,-0.2566715133809813,0.15013397494588304,0.7522064784575082,-0.04680929071553963,-0.08716850059186478,0.7136536924080116,0.6934759910189287,-0.25634346203004327,0.14275338123627232,0.7661842159568784,0.6935215861248307,-0.04638186035518868,-0.08673858707187881,0.7136896735428255
8.340449094772339,-0.2563872946484441,0.1500747747313534,0.7512626762641498,-0.04681404207451567,-0.08717402385454717,0.7136559518932537,0.6934726507635225,-0.25634346203004327,0.14275338123627232,0.7661842159568784,0.6935215861248307,-0.04638186035518868,-0.08673858707187881,0.7136896735428255
8.439160108566284,-0.2560852019063793,0.15001218206992878,0.7502635502403292,-0.04681906263254151,-0.08717986341839724,0.7136583318295043,0.6934691285117809,-0.25634346203004327,0.14275338123627232,0.7661842159568784,0.6935215861248307,-0.04638186035518868,-0.08673858707187881,0.7136896735428255
8.539124965667725,-0.25578276596566923,0.1499498474684342,0.749267360225865,-0.046824060766290435,-0.08718568067253978,0.7136607037589714,0.693465618707424,-0.25634346203004327,0.14275338123627232,0.7661842159568784,0.6935215861248307,-0.04638186035518868,-0.08673858707187881,0.7136896735428255
8.641385078430176,-0.2554864624504192,0.14988909452722848,0.7482952723461729,-0.04682893045918006,-0.08719135176042798,0.7136630148116992,0.6934621984939878,-0.25634346203004327,0.14275338123627232,0.7661842159568784,0.6935215861248307,-0.04638186035518868,-0.08673858707187881,0.7136896735428255
